;content of C:\Users\pm0157\AppData\Local\Temp\92fetmp-1570884320.raw - (Diffrac Plus V4 file)
_FILEVERSION = 3
_SAMPLE = Commander Sample ID
_+SAMPLE
_USER = Operator
_GONIOMETER_CODE = 21
_STAGE_CODE = 7
; Goniometer : D8 theta/theta, stage : Chi drive
_SAMPLE_CHANGER_CODE = 0
_ATTACHMENTS_CODE = 0
_GONIOMETER_RADIUS = 280
_FIXED_DIVSLIT = 18
_SOLLER_SLITS = 2
_MONOCHROMATOR = 0
; Incident beam monochromator : None
_BETA_FILTER = N
_ANALYZER_CODE = 0
; Received beam analyzer : None
_DATEMEASURED = 01-Oct-2019 16:13:03
_RUNTIME = 1.14083
_WL_UNIT = A
_WL1 = 1.5406
_WL2 = 1.54439
_WL3 = 1.39222
_WLRATIO = 0.5
_ANODE = Cu
_V4_INF_USER = Operator
_V4_INF_SAMPLEID = Commander Sample ID
_V4_INF_CREATOR = V5Converter
_V4_INF_CREATOR_VERSION = 6.1.2.0

; Data for range 1
_DRIVE = COUPLED
_STEPTIME = 38.4
_STEPSIZE = 0.015327
_STEPMODE = C
_START = 93.0001
_THETA = 46.50005
_2THETA = 93.0001
_DIVERGENCE = 10
_DETECTORSLIT = out
_TIMESTARTED = 0
_KV = 40
_MA = 35
_RANGE_WL = 1.5406
_3DPLANE = 0
_V4_PSD2THETA = 9999
_V4_PSDCHANNEL1 = 0
_V4_PSDAPERTURE = 2.942719
_V4_PSDTYPE = 5
_V4_PSDFIXED = 0
_V4_COUNTERS_MASK = 1
_V4_DRIVES_MASK = 0
_V4_ENCODERS_MASK = 0
_2THETACOUNTS = 1
; 2THETA	Cnt2_D1	
93.000100	10.312500	
93.015427	10.677080	
93.030753	11.536460	
93.046080	11.302080	
93.061407	11.744790	
93.076733	11.171880	
93.092060	12.213540	
93.107387	11.510420	
93.122713	12.604170	
93.138040	11.979170	
93.153367	12.161460	
93.168693	11.510420	
93.184020	11.145830	
93.199347	11.614580	
93.214673	10.859380	
93.230000	10.807290	
93.245327	11.458330	
93.260653	11.770830	
93.275980	10.807290	
93.291307	11.093750	
93.306633	11.692710	
93.321960	12.109370	
93.337287	12.500000	
93.352613	13.046870	
93.367940	12.473960	
93.383267	11.692710	
93.398593	11.302080	
93.413920	11.953130	
93.429247	11.015630	
93.444573	11.744790	
93.459900	12.500000	
93.475227	11.744790	
93.490553	11.588540	
93.505880	11.041670	
93.521207	12.734370	
93.536533	12.317710	
93.551860	12.005210	
93.567187	12.135420	
93.582513	12.135420	
93.597840	12.968750	
93.613167	12.369790	
93.628493	13.333330	
93.643820	12.343750	
93.659147	13.359370	
93.674473	12.656250	
93.689800	12.812500	
93.705127	13.098960	
93.720453	13.151040	
93.735780	13.046870	
93.751107	13.125000	
93.766433	13.723960	
93.781760	13.515620	
93.797087	12.447920	
93.812413	12.578120	
93.827740	13.098960	
93.843067	13.281250	
93.858393	13.385420	
93.873720	14.557290	
93.889047	12.682290	
93.904373	13.671870	
93.919700	13.723960	
93.935026	14.505210	
93.950353	14.817710	
93.965680	14.973960	
93.981006	14.192710	
93.996333	13.541670	
94.011660	14.843750	
94.026986	14.218750	
94.042313	15.755210	
94.057640	14.713540	
94.072966	14.791670	
94.088293	15.078120	
94.103620	14.791670	
94.118946	16.588540	
94.134273	15.312500	
94.149600	15.546870	
94.164926	15.000000	
94.180253	15.520830	
94.195580	16.406250	
94.210906	17.005210	
94.226233	18.984380	
94.241560	20.625000	
94.256886	22.083330	
94.272213	23.463540	
94.287540	19.505210	
94.302866	18.828130	
94.318193	17.057290	
94.333520	18.463540	
94.348846	20.260420	
94.364173	19.427080	
94.379500	17.968750	
94.394826	19.765630	
94.410153	20.468750	
94.425480	21.328130	
94.440806	19.843750	
94.456133	21.354170	
94.471460	20.625000	
94.486786	22.760420	
94.502113	22.656250	
94.517440	24.375000	
94.532766	25.494790	
94.548093	27.500000	
94.563420	27.786460	
94.578746	30.260420	
94.594073	29.765620	
94.609400	31.744790	
94.624726	31.041670	
94.640053	32.968750	
94.655380	34.661460	
94.670706	33.645830	
94.686033	33.906250	
94.701360	34.401040	
94.716686	35.338540	
94.732013	35.625000	
94.747340	36.432290	
94.762666	39.296880	
94.777993	39.192710	
94.793320	39.895830	
94.808646	41.692710	
94.823973	43.307290	
94.839300	48.932290	
94.854626	50.104160	
94.869953	51.588540	
94.885280	57.656250	
94.900606	61.718750	
94.915933	71.848950	
94.931260	77.317700	
94.946586	84.427080	
94.961913	91.927080	
94.977240	106.171900	
94.992566	124.375000	
95.007893	144.557300	
95.023220	175.781300	
95.038546	206.250000	
95.053873	255.937500	
95.069200	326.666700	
95.084526	414.661400	
95.099853	551.119800	
95.115180	693.515600	
95.130506	859.401000	
95.145833	992.213500	
95.161160	1073.229000	
95.176486	1106.380000	
95.191813	1079.688000	
95.207140	1042.370000	
95.222466	935.468700	
95.237793	824.635400	
95.253120	699.661400	
95.268446	582.109400	
95.283773	475.026000	
95.299100	402.005200	
95.314426	341.875000	
95.329753	306.796900	
95.345080	288.932300	
95.360406	281.614600	
95.375733	291.979200	
95.391060	310.104200	
95.406386	357.135400	
95.421713	419.036400	
95.437040	484.062500	
95.452366	548.776000	
95.467693	593.593800	
95.483020	622.890600	
95.498346	612.760400	
95.513673	590.781300	
95.529000	544.765600	
95.544326	489.687500	
95.559653	417.473900	
95.574980	347.317700	
95.590306	283.697900	
95.605633	230.651000	
95.620960	191.640600	
95.636286	163.359400	
95.651613	140.312500	
95.666940	119.010400	
95.682266	104.947900	
95.697593	94.375000	
95.712920	84.348950	
95.728246	73.125000	
95.743573	66.380200	
95.758900	61.484370	
95.774226	55.989580	
95.789553	51.015620	
95.804879	47.161460	
95.820206	44.479160	
95.835533	39.583330	
95.850859	40.338540	
95.866186	37.343750	
95.881513	35.572910	
95.896839	32.786460	
95.912166	33.151040	
95.927493	29.270830	
95.942819	29.010420	
95.958146	29.036460	
95.973473	27.473960	
95.988799	27.083330	
96.004126	26.119790	
96.019453	24.218750	
96.034779	24.869790	
96.050106	21.484380	
96.065433	23.098960	
96.080759	21.979170	
96.096086	22.291670	
96.111413	22.552080	
96.126739	22.395830	
96.142066	21.067710	
96.157393	21.770830	
96.172719	20.312500	
96.188046	19.375000	
96.203373	20.703130	
96.218699	18.229170	
96.234026	17.994790	
96.249353	18.854170	
96.264679	18.776040	
96.280006	18.020830	
96.295333	18.177080	
96.310659	18.776040	
96.325986	17.395830	
96.341313	18.828130	
96.356639	17.369790	
96.371966	17.031250	
96.387293	16.458330	
96.402619	19.036460	
96.417946	16.848960	
96.433273	17.812500	
96.448599	17.343750	
96.463926	17.682290	
96.479253	17.239580	
96.494579	16.822920	
96.509906	17.291670	
96.525233	15.937500	
96.540559	17.031250	
96.555886	15.885420	
96.571213	16.953130	
96.586539	15.937500	
96.601866	17.109380	
96.617193	14.973960	
96.632519	15.520830	
96.647846	16.901040	
96.663173	16.093750	
96.678499	15.494790	
96.693826	15.625000	
96.709153	16.380210	
96.724479	14.348960	
96.739806	15.286460	
96.755133	15.468750	
96.770459	15.182290	
96.785786	14.557290	
96.801113	15.208330	
96.816439	13.541670	
96.831766	14.869790	
96.847093	15.468750	
96.862419	15.625000	
96.877746	16.744790	
96.893073	15.338540	
96.908399	13.854170	
96.923726	14.505210	
96.939053	14.322920	
96.954379	14.244790	
96.969706	14.244790	
96.985033	14.921870	
97.000359	14.140620	
97.015686	14.218750	
97.031013	14.479170	
97.046339	12.942710	
97.061666	13.958330	
97.076993	13.333330	
97.092319	13.515620	
97.107646	13.333330	
97.122973	13.854170	
97.138299	14.557290	
97.153626	15.026040	
97.168953	14.453120	
97.184279	13.802080	
97.199606	14.062500	
97.214933	14.609370	
97.230259	14.218750	
97.245586	14.088540	
97.260913	13.697920	
97.276239	14.583330	
97.291566	13.984370	
97.306893	14.817710	
97.322219	13.619790	
97.337546	14.505210	
97.352873	14.401040	
97.368199	13.723960	
97.383526	13.255210	
97.398853	13.776040	
97.414179	13.151040	
97.429506	13.932290	
97.444833	13.463540	
97.460159	14.921870	
97.475486	14.453120	
97.490813	13.906250	
97.506139	13.593750	
97.521466	13.203120	
97.536793	12.369790	
97.552119	13.255210	
97.567446	13.307290	
97.582773	14.348960	
97.598099	13.255210	
97.613426	14.557290	
97.628753	12.578120	
97.644079	13.255210	
97.659406	13.776040	
97.674732	13.854170	
97.690059	13.932290	
97.705386	13.385420	
97.720712	12.890620	
97.736039	11.875000	
97.751366	13.411460	
97.766692	13.515620	
97.782019	13.072920	
97.797346	13.567710	
97.812672	12.421870	
97.827999	13.854170	
97.843326	12.682290	
97.858652	13.697920	
97.873979	14.218750	
97.889306	14.270830	
97.904632	13.697920	
97.919959	13.593750	
97.935286	13.619790	
97.950612	12.890620	
97.965939	13.489580	
97.981266	13.411460	
97.996592	13.203120	
